               Theta              Radial            Vertical
          0.00110165          0.00110165             5.98924
          0.00523614          0.00523611             5.98922
           0.0106305           0.0106303             5.98918
            0.014765           0.0147644             5.98913
           0.0180699           0.0180689             5.98908
           0.0263389           0.0263359             5.98889
           0.0371276           0.0371191             5.98855
           0.0453966            0.045381             5.98821
           0.0498032           0.0497826               5.988
           0.0580722           0.0580395             5.98755
           0.0688609           0.0688065             5.98687
           0.0771298           0.0770534             5.98627
           0.0815364           0.0814461             5.98592
           0.0898054           0.0896848             5.98521
            0.100594            0.100425             5.98418
            0.108863            0.108648             5.98332
             0.11327            0.113028             5.98283
            0.121539             0.12124             5.98186
            0.132327            0.131942              5.9805
            0.140596            0.140134             5.97937
            0.145003            0.144495             5.97874
            0.153272            0.152673             5.97752
            0.164061            0.163326             5.97581
             0.17233            0.171478             5.97443
            0.176736            0.175818             5.97366
            0.185005            0.183952             5.97217
            0.195794            0.194545             5.97013
            0.204063             0.20265             5.96849
            0.208469            0.206963             5.96759
            0.216738            0.215046             5.96584
            0.227527            0.225569             5.96347
            0.235796            0.233617             5.96157
            0.240203              0.2379             5.96053
            0.248472            0.245923             5.95853
             0.25926            0.256366             5.95582
            0.267529             0.26435             5.95367
            0.271936            0.268597             5.95249
            0.280205            0.276553             5.95024
            0.290994            0.286904              5.9472
            0.299263            0.294816             5.94479
            0.303669            0.299024             5.94348
            0.311938            0.306904             5.94098
            0.322727            0.317154             5.93761
            0.330996            0.324985             5.93496
            0.335403            0.329149             5.93352
            0.343671            0.336946             5.93076
             0.35446            0.347084             5.92707
            0.362729            0.354827             5.92417
            0.367136            0.358944              5.9226
            0.375405            0.366649              5.9196
            0.386193            0.376665             5.91559
            0.394462            0.384312             5.91244
            0.398869            0.388376             5.91074
            0.407138            0.395983              5.9075
            0.417927            0.405866             5.90317
            0.426196             0.41341             5.89978
            0.430602            0.417418             5.89795
            0.438871            0.424918             5.89447
             0.44966            0.434659             5.88983
            0.457929            0.442091             5.88621
            0.462336             0.44604             5.88425
            0.470605            0.453425             5.88053
            0.481393            0.463015             5.87559
            0.489662            0.470328             5.87173
            0.494069            0.474212             5.86965
            0.502338            0.481476              5.8657
            0.513126            0.490903             5.86045
            0.521395            0.498091             5.85636
            0.525802            0.501907             5.85416
            0.534071            0.509042             5.84998
             0.54486            0.518298             5.84444
            0.553129            0.525352             5.84012
            0.557535            0.529096              5.8378
            0.565804            0.536095              5.8334
            0.576593            0.545171             5.82756
            0.584862            0.552084             5.82303
            0.589269            0.555753             5.82059
            0.597538            0.562608             5.81596
            0.608326            0.571495             5.80984
            0.616595            0.578261             5.80509
            0.621002             0.58185             5.80253
            0.629271            0.588555              5.7977
             0.64006            0.597243              5.7913
            0.648329            0.603855             5.78633
            0.652735            0.607362             5.78366
            0.661004             0.61391             5.77861
            0.671793             0.62239             5.77195
            0.680062            0.628841             5.76677
            0.684468            0.632261             5.76399
            0.692737            0.638646             5.75874
            0.703526            0.646911              5.7518
            0.711795            0.653194             5.74643
            0.716202            0.656524             5.74354
            0.724471            0.662739             5.73809
            0.735259            0.670779              5.7309
            0.743528            0.676889             5.72532
            0.747935            0.680126             5.72233
            0.756204            0.686165             5.71668
            0.766993            0.693973             5.70924
            0.775262            0.699903             5.70348
            0.779668            0.703043             5.70039
            0.787937              0.7089             5.69455
            0.798726            0.716468             5.68686
            0.806995            0.722212             5.68091
            0.811401            0.725253             5.67772
             0.81967            0.730921              5.6717
            0.830459            0.738241             5.66378
            0.838728            0.743794             5.65765
            0.843135            0.746732             5.65436
            0.851404            0.752206             5.64817
            0.862192            0.759271             5.64001
            0.870461            0.764626             5.63371
            0.874868            0.767459             5.63034
            0.883137            0.772734             5.62397
            0.893926            0.779537              5.6156
            0.902195            0.784689             5.60913
            0.906601            0.787413             5.60566
             0.91487            0.792483             5.59913
            0.925659            0.799017             5.59055
            0.933928            0.803962             5.58392
            0.938334            0.806575             5.58037
            0.946603            0.811435             5.57368
            0.957392            0.817693             5.56489
            0.965661            0.822425             5.55811
            0.970068            0.824924             5.55448
            0.978337             0.82957             5.54764
            0.989125            0.835546             5.53866
            0.997394             0.84006             5.53173
              1.0018            0.842443             5.52802
             1.01007            0.846869             5.52104
             1.02086            0.852557             5.51187
             1.02913             0.85685             5.50481
             1.03353            0.859113             5.50102
              1.0418            0.863316              5.4939
             1.05259             0.86871             5.48456
             1.06086            0.872776             5.47736
             1.06527            0.874918             5.47351
             1.07354            0.878893             5.46626
             1.08433            0.883988             5.45675
             1.09259            0.887824             5.44942
               1.097            0.889843             5.44551
             1.10527            0.893585             5.43813
             1.11606            0.898376             5.42847
             1.12433            0.901977             5.42102
             1.12873            0.903871             5.41704
               1.137            0.907378             5.40955
             1.14779             0.91186             5.39974
             1.15606            0.915223             5.39219
             1.16047             0.91699             5.38815
             1.16874            0.920257             5.38055
             1.17952            0.924425              5.3706
             1.18779            0.927547             5.36295
              1.1922            0.929185             5.35885
             1.20047            0.932209             5.35116
             1.21126            0.936059             5.34108
             1.21953            0.938937             5.33333
             1.22393            0.940444             5.32919
              1.2322            0.943223              5.3214
             1.24299            0.946751              5.3112
             1.25126            0.949381             5.30336
             1.25567            0.950756             5.29918
             1.26394            0.953287             5.29131
             1.27472             0.95649               5.281
             1.28299             0.95887             5.27308
              1.2874            0.960111             5.26886
             1.29567            0.962391             5.26091
             1.30646            0.965266             5.25051
             1.31473            0.967393             5.24252
             1.31913              0.9685             5.23825
              1.3274            0.970526             5.23024
             1.33819            0.973069             5.21975
             1.34646            0.974942              5.2117
             1.35087            0.975913              5.2074
             1.35914            0.977683             5.19932
             1.36992            0.979893             5.18876
             1.37819            0.981509             5.18065
              1.3826            0.982343             5.17633
             1.39087            0.983857              5.1682
             1.40166             0.98573             5.15757
             1.40993            0.987088             5.14942
             1.41433            0.987785             5.14506
              1.4226            0.989039             5.13689
             1.43339            0.990575             5.12621
             1.44166            0.991673             5.11802
             1.44607            0.992231             5.11365
             1.45434            0.993226             5.10544
             1.46512            0.994422             5.09471
             1.47339             0.99526             5.08649
              1.4778            0.995679              5.0821
             1.48607            0.996413             5.07386
             1.49686            0.997268             5.06311
             1.50513            0.997845             5.05486
             1.50953            0.998124             5.05046
              1.5178            0.998596             5.04221
             1.52859            0.999109             5.03143
             1.53686            0.999424             5.02317
             1.54127            0.999564             5.01876
             1.54954            0.999774              5.0105
             1.56032            0.999945             4.99971
             1.56859            0.999998             4.99144
               1.573            0.999998             4.98704
             1.58127            0.999945             4.97877
             1.59206            0.999774             4.96798
             1.60033            0.999564             4.95971
             1.60473            0.999424             4.95531
               1.613            0.999109             4.94705
             1.62379            0.998596             4.93627
             1.63206            0.998124             4.92801
             1.63647            0.997845             4.92362
             1.64474            0.997268             4.91537
             1.65552            0.996413             4.90461
             1.66379            0.995679             4.89638
              1.6682             0.99526             4.89199
             1.67647            0.994422             4.88376
             1.68726            0.993226             4.87304
             1.69553            0.992231             4.86483
             1.69993            0.991673             4.86046
              1.7082            0.990575             4.85227
             1.71899            0.989039             4.84159
             1.72726            0.987785             4.83341
             1.73167            0.987088             4.82906
             1.73993             0.98573             4.82091
             1.75072            0.983857             4.81028
             1.75899            0.982343             4.80215
              1.7634            0.981509             4.79782
             1.77167            0.979893             4.78971
             1.78246            0.977683             4.77915
             1.79073            0.975913             4.77108
             1.79513            0.974942             4.76678
              1.8034            0.973069             4.75873
             1.81419            0.970526             4.74824
             1.82246              0.9685             4.74022
             1.82687            0.967393             4.73596
             1.83513            0.965266             4.72797
             1.84592            0.962391             4.71757
             1.85419            0.960111             4.70962
              1.8586             0.95887             4.70539
             1.86687             0.95649             4.69747
             1.87766            0.953287             4.68717
             1.88593            0.950756              4.6793
             1.89033            0.949381             4.67511
              1.8986            0.946751             4.66727
             1.90939            0.943223             4.65708
             1.91766            0.940444             4.64929
             1.92207            0.938937             4.64515
             1.93033            0.936059              4.6374
             1.94112            0.932209             4.62732
             1.94939            0.929185             4.61962
              1.9538            0.927547             4.61553
             1.96207            0.924425             4.60787
             1.97286            0.920257             4.59792
             1.98113             0.91699             4.59033
             1.98553            0.915223             4.58629
              1.9938             0.91186             4.57874
             2.00459            0.907378             4.56892
             2.01286            0.903871             4.56143
             2.01727            0.901977             4.55746
             2.02553            0.898376             4.55001
             2.03632            0.893585             4.54035
             2.04459            0.889843             4.53297
               2.049            0.887824             4.52905
             2.05727            0.883988             4.52173
             2.06806            0.878893             4.51222
             2.07633            0.874918             4.50497
             2.08073            0.872776             4.50112
               2.089             0.86871             4.49392
             2.09979            0.863316             4.48457
             2.10806            0.859113             4.47745
             2.11247             0.85685             4.47367
             2.12073            0.852557              4.4666
             2.13152            0.846869             4.45744
             2.13979            0.842443             4.45045
              2.1442             0.84006             4.44675
             2.15247            0.835546             4.43982
             2.16326             0.82957             4.43084
             2.17152            0.824924             4.42399
             2.17593            0.822425             4.42037
              2.1842            0.817693             4.41358
             2.19499            0.811435              4.4048
             2.20326            0.806575             4.39811
             2.20766            0.803962             4.39456
             2.21593            0.799017             4.38793
             2.22672            0.792483             4.37935
             2.23499            0.787413             4.37281
              2.2394            0.784689             4.36935
             2.24767            0.779537             4.36288
             2.25846            0.772734             4.35451
             2.26672            0.767459             4.34814
             2.27113            0.764626             4.34476
              2.2794            0.759271             4.33846
             2.29019            0.752206             4.33031
             2.29846            0.746732             4.32411
             2.30286            0.743794             4.32083
             2.31113            0.738241              4.3147
             2.32192            0.730921             4.30678
             2.33019            0.725253             4.30076
              2.3346            0.722212             4.29757
             2.34287            0.716468             4.29162
             2.35366              0.7089             4.28393
             2.36192            0.703043             4.27809
             2.36633            0.699903               4.275
              2.3746            0.693973             4.26924
             2.38539            0.686165             4.26179
             2.39366            0.680126             4.25614
             2.39806            0.676889             4.25315
             2.40633            0.670779             4.24758
             2.41712            0.662739             4.24039
             2.42539            0.656524             4.23493
              2.4298            0.653194             4.23205
             2.43807            0.646911             4.22667
             2.44886            0.638646             4.21974
             2.45712            0.632261             4.21448
             2.46153            0.628841              4.2117
              2.4698             0.62239             4.20653
             2.48059             0.61391             4.19986
             2.48886            0.607362             4.19481
             2.49326            0.603855             4.19214
             2.50153            0.597243             4.18718
             2.51232            0.588555             4.18078
             2.52059             0.58185             4.17594
               2.525            0.578261             4.17339
             2.53327            0.571495             4.16863
             2.54406            0.562608             4.16252
             2.55232            0.555753             4.15789
             2.55673            0.552084             4.15545
               2.565            0.545171             4.15091
