               Theta              Radial            Vertical
          0.00110165          0.00110165             6.98343
          0.00523614          0.00523611             6.98341
           0.0106305           0.0106303             6.98332
            0.014765           0.0147644             6.98322
           0.0180699           0.0180689             6.98311
           0.0263389           0.0263359             6.98274
           0.0371276           0.0371191             6.98206
           0.0453966            0.045381             6.98137
           0.0498032           0.0497826             6.98095
           0.0580722           0.0580395             6.98006
           0.0688609           0.0688065             6.97869
           0.0771298           0.0770534             6.97749
           0.0815364           0.0814461             6.97679
           0.0898054           0.0896848             6.97537
            0.100594            0.100425             6.97332
            0.108863            0.108648             6.97159
             0.11327            0.113028             6.97062
            0.121539             0.12124             6.96868
            0.132327            0.131942             6.96595
            0.140596            0.140134              6.9637
            0.145003            0.144495             6.96244
            0.153272            0.152673             6.95999
            0.164061            0.163326             6.95658
             0.17233            0.171478             6.95381
            0.176736            0.175818             6.95228
            0.185005            0.183952              6.9493
            0.195794            0.194545             6.94522
            0.204063             0.20265             6.94194
            0.208469            0.206963             6.94013
            0.216738            0.215046             6.93664
            0.227527            0.225569             6.93189
            0.235796            0.233617             6.92809
            0.240203              0.2379             6.92601
            0.248472            0.245923             6.92201
             0.25926            0.256366             6.91659
            0.267529             0.26435             6.91229
            0.271936            0.268597             6.90994
            0.280205            0.276553             6.90543
            0.290994            0.286904             6.89935
            0.299263            0.294816             6.89454
            0.303669            0.299024             6.89193
            0.311938            0.306904             6.88691
            0.322727            0.317154             6.88018
            0.330996            0.324985             6.87487
            0.335403            0.329149             6.87199
            0.343671            0.336946             6.86648
             0.35446            0.347084              6.8591
            0.362729            0.354827              6.8533
            0.367136            0.358944             6.85015
            0.375405            0.366649             6.84415
            0.386193            0.376665             6.83613
            0.394462            0.384312             6.82984
            0.398869            0.388376             6.82644
            0.407138            0.395983             6.81995
            0.417927            0.405866              6.8113
            0.426196             0.41341             6.80452
            0.430602            0.417418             6.80086
            0.438871            0.424918              6.7939
             0.44966            0.434659             6.78462
            0.457929            0.442091             6.77737
            0.462336             0.44604             6.77346
            0.470605            0.453425             6.76602
            0.481393            0.463015             6.75614
            0.489662            0.470328             6.74842
            0.494069            0.474212             6.74426
            0.502338            0.481476             6.73635
            0.513126            0.490903             6.72586
            0.521395            0.498091             6.71768
            0.525802            0.501907             6.71328
            0.534071            0.509042             6.70492
             0.54486            0.518298             6.69383
            0.553129            0.525352              6.6852
            0.557535            0.529096             6.68056
            0.565804            0.536095             6.67175
            0.576593            0.545171             6.66008
            0.584862            0.552084             6.65101
            0.589269            0.555753             6.64613
            0.597538            0.562608             6.63688
            0.608326            0.571495             6.62465
            0.616595            0.578261             6.61514
            0.621002             0.58185             6.61003
            0.629271            0.588555             6.60035
             0.64006            0.597243             6.58755
            0.648329            0.603855             6.57762
            0.652735            0.607362             6.57228
            0.661004             0.61391             6.56219
            0.671793             0.62239             6.54885
            0.680062            0.628841              6.5385
            0.684468            0.632261             6.53294
            0.692737            0.638646             6.52244
            0.703526            0.646911             6.50857
            0.711795            0.653194             6.49781
            0.716202            0.656524             6.49204
            0.724471            0.662739             6.48113
            0.735259            0.670779             6.46675
            0.743528            0.676889              6.4556
            0.747935            0.680126             6.44962
            0.756204            0.686165             6.43833
            0.766993            0.693973             6.42344
            0.775262            0.699903             6.41191
            0.779668            0.703043             6.40573
            0.787937              0.7089             6.39405
            0.798726            0.716468             6.37867
            0.806995            0.722212             6.36678
            0.811401            0.725253              6.3604
             0.81967            0.730921             6.34836
            0.830459            0.738241             6.33251
            0.838728            0.743794             6.32025
            0.843135            0.746732             6.31368
            0.851404            0.752206             6.30129
            0.862192            0.759271             6.28498
            0.870461            0.764626             6.27238
            0.874868            0.767459             6.26563
            0.883137            0.772734             6.25289
            0.893926            0.779537             6.23615
            0.902195            0.784689             6.22321
            0.906601            0.787413             6.21628
             0.91487            0.792483             6.20322
            0.925659            0.799017             6.18605
            0.933928            0.803962              6.1728
            0.938334            0.806575              6.1657
            0.946603            0.811435             6.15232
            0.957392            0.817693             6.13474
            0.965661            0.822425             6.12118
            0.970068            0.824924             6.11392
            0.978337             0.82957             6.10024
            0.989125            0.835546             6.08228
            0.997394             0.84006             6.06842
              1.0018            0.842443             6.06101
             1.01007            0.846869             6.04704
             1.02086            0.852557              6.0287
             1.02913             0.85685             6.01457
             1.03353            0.859113             6.00701
              1.0418            0.863316             5.99276
             1.05259             0.86871             5.97408
             1.06086            0.872776             5.95968
             1.06527            0.874918             5.95197
             1.07354            0.878893             5.93747
             1.08433            0.883988             5.91845
             1.09259            0.887824              5.9038
               1.097            0.889843             5.89597
             1.10527            0.893585             5.88122
             1.11606            0.898376             5.86189
             1.12433            0.901977               5.847
             1.12873            0.903871             5.83904
               1.137            0.907378             5.82407
             1.14779             0.91186             5.80444
             1.15606            0.915223             5.78933
             1.16047             0.91699             5.78126
             1.16874            0.920257             5.76606
             1.17952            0.924425             5.74616
             1.18779            0.927547             5.73085
              1.1922            0.929185             5.72267
             1.20047            0.932209             5.70727
             1.21126            0.936059             5.68712
             1.21953            0.938937             5.67161
             1.22393            0.940444             5.66333
              1.2322            0.943223             5.64776
             1.24299            0.946751             5.62736
             1.25126            0.949381             5.61169
             1.25567            0.950756             5.60331
             1.26394            0.953287             5.58757
             1.27472             0.95649             5.56696
             1.28299             0.95887             5.55113
              1.2874            0.960111             5.54267
             1.29567            0.962391             5.52677
             1.30646            0.965266             5.50598
             1.31473            0.967393             5.48999
             1.31913              0.9685             5.48146
              1.3274            0.970526             5.46543
             1.33819            0.973069             5.44446
             1.34646            0.974942             5.42835
             1.35087            0.975913             5.41976
             1.35914            0.977683              5.4036
             1.36992            0.979893             5.38248
             1.37819            0.981509             5.36626
              1.3826            0.982343             5.35761
             1.39087            0.983857             5.34135
             1.40166             0.98573              5.3201
             1.40993            0.987088             5.30379
             1.41433            0.987785             5.29508
              1.4226            0.989039             5.27874
             1.43339            0.990575             5.25738
             1.44166            0.991673             5.24099
             1.44607            0.992231             5.23225
             1.45434            0.993226             5.21583
             1.46512            0.994422             5.19438
             1.47339             0.99526             5.17793
              1.4778            0.995679             5.16916
             1.48607            0.996413             5.15269
             1.49686            0.997268             5.13118
             1.50513            0.997845             5.11468
             1.50953            0.998124             5.10588
              1.5178            0.998596             5.08937
             1.52859            0.999109             5.06782
             1.53686            0.999424             5.05129
             1.54127            0.999564             5.04249
             1.54954            0.999774             5.02595
             1.56032            0.999945             5.00438
             1.56859            0.999998             4.98784
               1.573            0.999998             4.97903
             1.58127            0.999945             4.96249
             1.59206            0.999774             4.94092
             1.60033            0.999564             4.92438
             1.60473            0.999424             4.91557
               1.613            0.999109             4.89905
             1.62379            0.998596             4.87749
             1.63206            0.998124             4.86098
             1.63647            0.997845             4.85219
             1.64474            0.997268             4.83569
             1.65552            0.996413             4.81418
             1.66379            0.995679             4.79771
              1.6682             0.99526             4.78894
             1.67647            0.994422             4.77248
             1.68726            0.993226             4.75104
             1.69553            0.992231             4.73462
             1.69993            0.991673             4.72588
              1.7082            0.990575             4.70949
             1.71899            0.989039             4.68813
             1.72726            0.987785             4.67178
             1.73167            0.987088             4.66308
             1.73993             0.98573             4.64677
             1.75072            0.983857             4.62552
             1.75899            0.982343             4.60926
              1.7634            0.981509             4.60061
             1.77167            0.979893             4.58439
             1.78246            0.977683             4.56327
             1.79073            0.975913             4.54711
             1.79513            0.974942             4.53852
              1.8034            0.973069             4.52241
             1.81419            0.970526             4.50144
             1.82246              0.9685              4.4854
             1.82687            0.967393             4.47687
             1.83513            0.965266             4.46089
             1.84592            0.962391              4.4401
             1.85419            0.960111              4.4242
              1.8586             0.95887             4.41574
             1.86687             0.95649              4.3999
             1.87766            0.953287              4.3793
             1.88593            0.950756             4.36355
             1.89033            0.949381             4.35518
              1.8986            0.946751              4.3395
             1.90939            0.943223             4.31911
             1.91766            0.940444             4.30354
             1.92207            0.938937             4.29525
             1.93033            0.936059             4.27975
             1.94112            0.932209             4.25959
             1.94939            0.929185              4.2442
              1.9538            0.927547             4.23602
             1.96207            0.924425             4.22071
             1.97286            0.920257              4.2008
             1.98113             0.91699             4.18561
             1.98553            0.915223             4.17754
              1.9938             0.91186             4.16243
             2.00459            0.907378              4.1428
             2.01286            0.903871             4.12782
             2.01727            0.901977             4.11987
             2.02553            0.898376             4.10498
             2.03632            0.893585             4.08565
             2.04459            0.889843              4.0709
               2.049            0.887824             4.06307
             2.05727            0.883988             4.04842
             2.06806            0.878893              4.0294
             2.07633            0.874918             4.01489
             2.08073            0.872776             4.00719
               2.089             0.86871             3.99279
             2.09979            0.863316             3.97411
             2.10806            0.859113             3.95986
             2.11247             0.85685              3.9523
             2.12073            0.852557             3.93817
             2.13152            0.846869             3.91983
             2.13979            0.842443             3.90586
              2.1442             0.84006             3.89845
             2.15247            0.835546             3.88459
             2.16326             0.82957             3.86663
             2.17152            0.824924             3.85295
             2.17593            0.822425             3.84569
              2.1842            0.817693             3.83213
             2.19499            0.811435             3.81455
             2.20326            0.806575             3.80117
             2.20766            0.803962             3.79407
             2.21593            0.799017             3.78082
             2.22672            0.792483             3.76365
             2.23499            0.787413             3.75058
              2.2394            0.784689             3.74366
             2.24767            0.779537             3.73072
             2.25846            0.772734             3.71397
             2.26672            0.767459             3.70124
             2.27113            0.764626             3.69449
              2.2794            0.759271             3.68188
             2.29019            0.752206             3.66558
             2.29846            0.746732             3.65318
             2.30286            0.743794             3.64661
             2.31113            0.738241             3.63436
             2.32192            0.730921             3.61851
             2.33019            0.725253             3.60647
              2.3346            0.722212             3.60009
             2.34287            0.716468             3.58819
             2.35366              0.7089             3.57282
             2.36192            0.703043             3.56114
             2.36633            0.699903             3.55496
              2.3746            0.693973             3.54343
             2.38539            0.686165             3.52854
             2.39366            0.680126             3.51724
             2.39806            0.676889             3.51126
             2.40633            0.670779             3.50012
             2.41712            0.662739             3.48573
             2.42539            0.656524             3.47482
              2.4298            0.653194             3.46905
             2.43807            0.646911              3.4583
             2.44886            0.638646             3.44443
             2.45712            0.632261             3.43392
             2.46153            0.628841             3.42837
              2.4698             0.62239             3.41802
             2.48059             0.61391             3.40468
             2.48886            0.607362             3.39458
             2.49326            0.603855             3.38925
             2.50153            0.597243             3.37931
             2.51232            0.588555             3.36652
             2.52059             0.58185             3.35684
               2.525            0.578261             3.35173
             2.53327            0.571495             3.34222
             2.54406            0.562608             3.32999
             2.55232            0.555753             3.32074
             2.55673            0.552084             3.31586
               2.565            0.545171             3.30678
