               Theta              Radial            Vertical
          0.00110165          0.00110165            -1.37209
          0.00523614          0.00523611             -1.3721
           0.0106305           0.0106303            -1.37214
            0.014765           0.0147644             -1.3722
           0.0180699           0.0180689            -1.37225
           0.0263389           0.0263359            -1.37243
           0.0371276           0.0371191            -1.37278
           0.0453966            0.045381            -1.37312
           0.0498032           0.0497826            -1.37333
           0.0580722           0.0580395            -1.37377
           0.0688609           0.0688065            -1.37446
           0.0771298           0.0770534            -1.37506
           0.0815364           0.0814461            -1.37541
           0.0898054           0.0896848            -1.37612
            0.100594            0.100425            -1.37714
            0.108863            0.108648            -1.37801
             0.11327            0.113028             -1.3785
            0.121539             0.12124            -1.37946
            0.132327            0.131942            -1.38083
            0.140596            0.140134            -1.38196
            0.145003            0.144495            -1.38258
            0.153272            0.152673            -1.38381
            0.164061            0.163326            -1.38552
             0.17233            0.171478             -1.3869
            0.176736            0.175818            -1.38766
            0.185005            0.183952            -1.38915
            0.195794            0.194545            -1.39119
            0.204063             0.20265            -1.39284
            0.208469            0.206963            -1.39374
            0.216738            0.215046            -1.39548
            0.227527            0.225569            -1.39786
            0.235796            0.233617            -1.39976
            0.240203              0.2379             -1.4008
            0.248472            0.245923             -1.4028
             0.25926            0.256366            -1.40551
            0.267529             0.26435            -1.40766
            0.271936            0.268597            -1.40883
            0.280205            0.276553            -1.41109
            0.290994            0.286904            -1.41413
            0.299263            0.294816            -1.41653
            0.303669            0.299024            -1.41784
            0.311938            0.306904            -1.42035
            0.322727            0.317154            -1.42371
            0.330996            0.324985            -1.42637
            0.335403            0.329149            -1.42781
            0.343671            0.336946            -1.43056
             0.35446            0.347084            -1.43425
            0.362729            0.354827            -1.43716
            0.367136            0.358944            -1.43873
            0.375405            0.366649            -1.44173
            0.386193            0.376665            -1.44574
            0.394462            0.384312            -1.44888
            0.398869            0.388376            -1.45059
            0.407138            0.395983            -1.45383
            0.417927            0.405866            -1.45816
            0.426196             0.41341            -1.46154
            0.430602            0.417418            -1.46337
            0.438871            0.424918            -1.46686
             0.44966            0.434659            -1.47149
            0.457929            0.442091            -1.47512
            0.462336             0.44604            -1.47707
            0.470605            0.453425            -1.48079
            0.481393            0.463015            -1.48574
            0.489662            0.470328             -1.4896
            0.494069            0.474212            -1.49168
            0.502338            0.481476            -1.49563
            0.513126            0.490903            -1.50087
            0.521395            0.498091            -1.50496
            0.525802            0.501907            -1.50717
            0.534071            0.509042            -1.51135
             0.54486            0.518298            -1.51689
            0.553129            0.525352             -1.5212
            0.557535            0.529096            -1.52353
            0.565804            0.536095            -1.52793
            0.576593            0.545171            -1.53376
            0.584862            0.552084             -1.5383
            0.589269            0.555753            -1.54074
            0.597538            0.562608            -1.54536
            0.608326            0.571495            -1.55148
            0.616595            0.578261            -1.55624
            0.621002             0.58185            -1.55879
            0.629271            0.588555            -1.56363
             0.64006            0.597243            -1.57003
            0.648329            0.603855            -1.57499
            0.652735            0.607362            -1.57766
            0.661004             0.61391            -1.58271
            0.671793             0.62239            -1.58938
            0.680062            0.628841            -1.59455
            0.684468            0.632261            -1.59733
            0.692737            0.638646            -1.60259
            0.703526            0.646911            -1.60952
            0.711795            0.653194             -1.6149
            0.716202            0.656524            -1.61778
            0.724471            0.662739            -1.62324
            0.735259            0.670779            -1.63043
            0.743528            0.676889              -1.636
            0.747935            0.680126            -1.63899
            0.756204            0.686165            -1.64464
            0.766993            0.693973            -1.65209
            0.775262            0.699903            -1.65785
            0.779668            0.703043            -1.66094
            0.787937              0.7089            -1.66678
            0.798726            0.716468            -1.67447
            0.806995            0.722212            -1.68042
            0.811401            0.725253             -1.6836
             0.81967            0.730921            -1.68963
            0.830459            0.738241            -1.69755
            0.838728            0.743794            -1.70368
            0.843135            0.746732            -1.70696
            0.851404            0.752206            -1.71316
            0.862192            0.759271            -1.72131
            0.870461            0.764626            -1.72761
            0.874868            0.767459            -1.73099
            0.883137            0.772734            -1.73736
            0.893926            0.779537            -1.74573
            0.902195            0.784689             -1.7522
            0.906601            0.787413            -1.75566
             0.91487            0.792483            -1.76219
            0.925659            0.799017            -1.77078
            0.933928            0.803962            -1.77741
            0.938334            0.806575            -1.78096
            0.946603            0.811435            -1.78765
            0.957392            0.817693            -1.79643
            0.965661            0.822425            -1.80321
            0.970068            0.824924            -1.80684
            0.978337             0.82957            -1.81368
            0.989125            0.835546            -1.82267
            0.997394             0.84006            -1.82959
              1.0018            0.842443             -1.8333
             1.01007            0.846869            -1.84029
             1.02086            0.852557            -1.84945
             1.02913             0.85685            -1.85652
             1.03353            0.859113             -1.8603
              1.0418            0.863316            -1.86742
             1.05259             0.86871            -1.87677
             1.06086            0.872776            -1.88397
             1.06527            0.874918            -1.88782
             1.07354            0.878893            -1.89507
             1.08433            0.883988            -1.90458
             1.09259            0.887824             -1.9119
               1.097            0.889843            -1.91582
             1.10527            0.893585            -1.92319
             1.11606            0.898376            -1.93286
             1.12433            0.901977             -1.9403
             1.12873            0.903871            -1.94428
               1.137            0.907378            -1.95177
             1.14779             0.91186            -1.96159
             1.15606            0.915223            -1.96914
             1.16047             0.91699            -1.97318
             1.16874            0.920257            -1.98077
             1.17952            0.924425            -1.99072
             1.18779            0.927547            -1.99838
              1.1922            0.929185            -2.00247
             1.20047            0.932209            -2.01017
             1.21126            0.936059            -2.02025
             1.21953            0.938937              -2.028
             1.22393            0.940444            -2.03214
              1.2322            0.943223            -2.03993
             1.24299            0.946751            -2.05012
             1.25126            0.949381            -2.05796
             1.25567            0.950756            -2.06215
             1.26394            0.953287            -2.07002
             1.27472             0.95649            -2.08032
             1.28299             0.95887            -2.08824
              1.2874            0.960111            -2.09247
             1.29567            0.962391            -2.10042
             1.30646            0.965266            -2.11082
             1.31473            0.967393            -2.11881
             1.31913              0.9685            -2.12307
              1.3274            0.970526            -2.13109
             1.33819            0.973069            -2.14157
             1.34646            0.974942            -2.14963
             1.35087            0.975913            -2.15393
             1.35914            0.977683              -2.162
             1.36992            0.979893            -2.17256
             1.37819            0.981509            -2.18067
              1.3826            0.982343              -2.185
             1.39087            0.983857            -2.19313
             1.40166             0.98573            -2.20375
             1.40993            0.987088            -2.21191
             1.41433            0.987785            -2.21626
              1.4226            0.989039            -2.22444
             1.43339            0.990575            -2.23511
             1.44166            0.991673            -2.24331
             1.44607            0.992231            -2.24768
             1.45434            0.993226            -2.25589
             1.46512            0.994422            -2.26661
             1.47339             0.99526            -2.27484
              1.4778            0.995679            -2.27923
             1.48607            0.996413            -2.28746
             1.49686            0.997268            -2.29822
             1.50513            0.997845            -2.30647
             1.50953            0.998124            -2.31086
              1.5178            0.998596            -2.31912
             1.52859            0.999109            -2.32989
             1.53686            0.999424            -2.33816
             1.54127            0.999564            -2.34256
             1.54954            0.999774            -2.35083
             1.56032            0.999945            -2.36162
             1.56859            0.999998            -2.36988
               1.573            0.999998            -2.37429
             1.58127            0.999945            -2.38256
             1.59206            0.999774            -2.39335
             1.60033            0.999564            -2.40161
             1.60473            0.999424            -2.40602
               1.613            0.999109            -2.41428
             1.62379            0.998596            -2.42506
             1.63206            0.998124            -2.43331
             1.63647            0.997845            -2.43771
             1.64474            0.997268            -2.44596
             1.65552            0.996413            -2.45671
             1.66379            0.995679            -2.46495
              1.6682             0.99526            -2.46934
             1.67647            0.994422            -2.47756
             1.68726            0.993226            -2.48829
             1.69553            0.992231            -2.49649
             1.69993            0.991673            -2.50087
              1.7082            0.990575            -2.50906
             1.71899            0.989039            -2.51974
             1.72726            0.987785            -2.52791
             1.73167            0.987088            -2.53226
             1.73993             0.98573            -2.54042
             1.75072            0.983857            -2.55105
             1.75899            0.982343            -2.55917
              1.7634            0.981509             -2.5635
             1.77167            0.979893            -2.57161
             1.78246            0.977683            -2.58217
             1.79073            0.975913            -2.59025
             1.79513            0.974942            -2.59455
              1.8034            0.973069             -2.6026
             1.81419            0.970526            -2.61309
             1.82246              0.9685             -2.6211
             1.82687            0.967393            -2.62537
             1.83513            0.965266            -2.63336
             1.84592            0.962391            -2.64376
             1.85419            0.960111            -2.65171
              1.8586             0.95887            -2.65593
             1.86687             0.95649            -2.66385
             1.87766            0.953287            -2.67415
             1.88593            0.950756            -2.68203
             1.89033            0.949381            -2.68621
              1.8986            0.946751            -2.69405
             1.90939            0.943223            -2.70425
             1.91766            0.940444            -2.71204
             1.92207            0.938937            -2.71618
             1.93033            0.936059            -2.72393
             1.94112            0.932209            -2.73401
             1.94939            0.929185             -2.7417
              1.9538            0.927547            -2.74579
             1.96207            0.924425            -2.75345
             1.97286            0.920257             -2.7634
             1.98113             0.91699              -2.771
             1.98553            0.915223            -2.77504
              1.9938             0.91186            -2.78259
             2.00459            0.907378             -2.7924
             2.01286            0.903871            -2.79989
             2.01727            0.901977            -2.80387
             2.02553            0.898376            -2.81131
             2.03632            0.893585            -2.82098
             2.04459            0.889843            -2.82835
               2.049            0.887824            -2.83227
             2.05727            0.883988             -2.8396
             2.06806            0.878893            -2.84911
             2.07633            0.874918            -2.85636
             2.08073            0.872776            -2.86021
               2.089             0.86871            -2.86741
             2.09979            0.863316            -2.87675
             2.10806            0.859113            -2.88387
             2.11247             0.85685            -2.88765
             2.12073            0.852557            -2.89472
             2.13152            0.846869            -2.90389
             2.13979            0.842443            -2.91087
              2.1442             0.84006            -2.91458
             2.15247            0.835546            -2.92151
             2.16326             0.82957            -2.93049
             2.17152            0.824924            -2.93733
             2.17593            0.822425            -2.94096
              2.1842            0.817693            -2.94774
             2.19499            0.811435            -2.95653
             2.20326            0.806575            -2.96322
             2.20766            0.803962            -2.96677
             2.21593            0.799017             -2.9734
             2.22672            0.792483            -2.98198
             2.23499            0.787413            -2.98851
              2.2394            0.784689            -2.99198
             2.24767            0.779537            -2.99844
             2.25846            0.772734            -3.00682
             2.26672            0.767459            -3.01319
             2.27113            0.764626            -3.01656
              2.2794            0.759271            -3.02286
             2.29019            0.752206            -3.03102
             2.29846            0.746732            -3.03721
             2.30286            0.743794             -3.0405
             2.31113            0.738241            -3.04662
             2.32192            0.730921            -3.05455
             2.33019            0.725253            -3.06057
              2.3346            0.722212            -3.06376
             2.34287            0.716468            -3.06971
             2.35366              0.7089             -3.0774
             2.36192            0.703043            -3.08323
             2.36633            0.699903            -3.08633
              2.3746            0.693973            -3.09209
             2.38539            0.686165            -3.09953
             2.39366            0.680126            -3.10518
             2.39806            0.676889            -3.10817
             2.40633            0.670779            -3.11374
             2.41712            0.662739            -3.12094
             2.42539            0.656524            -3.12639
              2.4298            0.653194            -3.12928
             2.43807            0.646911            -3.13465
             2.44886            0.638646            -3.14159
             2.45712            0.632261            -3.14684
             2.46153            0.628841            -3.14962
              2.4698             0.62239            -3.15479
             2.48059             0.61391            -3.16146
             2.48886            0.607362            -3.16651
             2.49326            0.603855            -3.16918
             2.50153            0.597243            -3.17415
             2.51232            0.588555            -3.18054
             2.52059             0.58185            -3.18538
               2.525            0.578261            -3.18794
             2.53327            0.571495            -3.19269
             2.54406            0.562608            -3.19881
             2.55232            0.555753            -3.20344
             2.55673            0.552084            -3.20588
               2.565            0.545171            -3.21041
