               Theta              Radial            Vertical
          0.00110165          0.00110165               11.99
          0.00523614          0.00523611               11.99
           0.0106305           0.0106303               11.99
            0.014765           0.0147644             11.9899
           0.0180699           0.0180689             11.9899
           0.0263389           0.0263359             11.9897
           0.0371276           0.0371191             11.9893
           0.0453966            0.045381              11.989
           0.0498032           0.0497826             11.9888
           0.0580722           0.0580395             11.9883
           0.0688609           0.0688065             11.9877
           0.0771298           0.0770534              11.987
           0.0815364           0.0814461             11.9867
           0.0898054           0.0896848              11.986
            0.100594            0.100425              11.985
            0.108863            0.108648             11.9841
             0.11327            0.113028             11.9836
            0.121539             0.12124             11.9826
            0.132327            0.131942             11.9813
            0.140596            0.140134             11.9802
            0.145003            0.144495             11.9795
            0.153272            0.152673             11.9783
            0.164061            0.163326             11.9766
             0.17233            0.171478             11.9752
            0.176736            0.175818             11.9744
            0.185005            0.183952              11.973
            0.195794            0.194545             11.9709
            0.204063             0.20265             11.9693
            0.208469            0.206963             11.9684
            0.216738            0.215046             11.9666
            0.227527            0.225569             11.9643
            0.235796            0.233617             11.9624
            0.240203              0.2379             11.9613
            0.248472            0.245923             11.9593
             0.25926            0.256366             11.9566
            0.267529             0.26435             11.9544
            0.271936            0.268597             11.9533
            0.280205            0.276553              11.951
            0.290994            0.286904              11.948
            0.299263            0.294816             11.9456
            0.303669            0.299024             11.9443
            0.311938            0.306904             11.9418
            0.322727            0.317154             11.9384
            0.330996            0.324985             11.9357
            0.335403            0.329149             11.9343
            0.343671            0.336946             11.9315
             0.35446            0.347084             11.9279
            0.362729            0.354827              11.925
            0.367136            0.358944             11.9234
            0.375405            0.366649             11.9204
            0.386193            0.376665             11.9164
            0.394462            0.384312             11.9132
            0.398869            0.388376             11.9115
            0.407138            0.395983             11.9083
            0.417927            0.405866              11.904
            0.426196             0.41341             11.9006
            0.430602            0.417418             11.8987
            0.438871            0.424918             11.8953
             0.44966            0.434659             11.8906
            0.457929            0.442091              11.887
            0.462336             0.44604              11.885
            0.470605            0.453425             11.8813
            0.481393            0.463015             11.8764
            0.489662            0.470328             11.8725
            0.494069            0.474212             11.8704
            0.502338            0.481476             11.8665
            0.513126            0.490903             11.8612
            0.521395            0.498091             11.8571
            0.525802            0.501907             11.8549
            0.534071            0.509042             11.8508
             0.54486            0.518298             11.8452
            0.553129            0.525352             11.8409
            0.557535            0.529096             11.8386
            0.565804            0.536095             11.8342
            0.576593            0.545171             11.8283
            0.584862            0.552084             11.8238
            0.589269            0.555753             11.8214
            0.597538            0.562608             11.8167
            0.608326            0.571495             11.8106
            0.616595            0.578261             11.8059
            0.621002             0.58185             11.8033
            0.629271            0.588555             11.7985
             0.64006            0.597243             11.7921
            0.648329            0.603855             11.7871
            0.652735            0.607362             11.7844
            0.661004             0.61391             11.7794
            0.671793             0.62239             11.7727
            0.680062            0.628841             11.7676
            0.684468            0.632261             11.7648
            0.692737            0.638646             11.7595
            0.703526            0.646911             11.7526
            0.711795            0.653194             11.7472
            0.716202            0.656524             11.7443
            0.724471            0.662739             11.7389
            0.735259            0.670779             11.7317
            0.743528            0.676889             11.7261
            0.747935            0.680126             11.7231
            0.756204            0.686165             11.7175
            0.766993            0.693973               11.71
            0.775262            0.699903             11.7043
            0.779668            0.703043             11.7012
            0.787937              0.7089             11.6953
            0.798726            0.716468             11.6876
            0.806995            0.722212             11.6817
            0.811401            0.725253             11.6785
             0.81967            0.730921             11.6725
            0.830459            0.738241             11.6646
            0.838728            0.743794             11.6584
            0.843135            0.746732             11.6551
            0.851404            0.752206              11.649
            0.862192            0.759271             11.6408
            0.870461            0.764626             11.6345
            0.874868            0.767459             11.6311
            0.883137            0.772734             11.6248
            0.893926            0.779537             11.6164
            0.902195            0.784689             11.6099
            0.906601            0.787413             11.6064
             0.91487            0.792483             11.5999
            0.925659            0.799017             11.5913
            0.933928            0.803962             11.5847
            0.938334            0.806575             11.5812
            0.946603            0.811435             11.5745
            0.957392            0.817693             11.5657
            0.965661            0.822425             11.5589
            0.970068            0.824924             11.5553
            0.978337             0.82957             11.5484
            0.989125            0.835546             11.5394
            0.997394             0.84006             11.5325
              1.0018            0.842443             11.5288
             1.01007            0.846869             11.5218
             1.02086            0.852557             11.5127
             1.02913             0.85685             11.5056
             1.03353            0.859113             11.5018
              1.0418            0.863316             11.4947
             1.05259             0.86871             11.4853
             1.06086            0.872776             11.4781
             1.06527            0.874918             11.4743
             1.07354            0.878893              11.467
             1.08433            0.883988             11.4575
             1.09259            0.887824             11.4502
               1.097            0.889843             11.4463
             1.10527            0.893585             11.4389
             1.11606            0.898376             11.4292
             1.12433            0.901977             11.4218
             1.12873            0.903871             11.4178
               1.137            0.907378             11.4103
             1.14779             0.91186             11.4005
             1.15606            0.915223              11.393
             1.16047             0.91699             11.3889
             1.16874            0.920257             11.3813
             1.17952            0.924425             11.3714
             1.18779            0.927547             11.3637
              1.1922            0.929185             11.3596
             1.20047            0.932209             11.3519
             1.21126            0.936059             11.3419
             1.21953            0.938937             11.3341
             1.22393            0.940444               11.33
              1.2322            0.943223             11.3222
             1.24299            0.946751              11.312
             1.25126            0.949381             11.3041
             1.25567            0.950756                11.3
             1.26394            0.953287             11.2921
             1.27472             0.95649             11.2818
             1.28299             0.95887             11.2739
              1.2874            0.960111             11.2696
             1.29567            0.962391             11.2617
             1.30646            0.965266             11.2513
             1.31473            0.967393             11.2433
             1.31913              0.9685              11.239
              1.3274            0.970526              11.231
             1.33819            0.973069             11.2205
             1.34646            0.974942             11.2125
             1.35087            0.975913             11.2082
             1.35914            0.977683             11.2001
             1.36992            0.979893             11.1895
             1.37819            0.981509             11.1814
              1.3826            0.982343             11.1771
             1.39087            0.983857              11.169
             1.40166             0.98573             11.1584
             1.40993            0.987088             11.1502
             1.41433            0.987785             11.1458
              1.4226            0.989039             11.1377
             1.43339            0.990575              11.127
             1.44166            0.991673             11.1188
             1.44607            0.992231             11.1144
             1.45434            0.993226             11.1062
             1.46512            0.994422             11.0955
             1.47339             0.99526             11.0873
              1.4778            0.995679             11.0829
             1.48607            0.996413             11.0746
             1.49686            0.997268             11.0639
             1.50513            0.997845             11.0556
             1.50953            0.998124             11.0512
              1.5178            0.998596              11.043
             1.52859            0.999109             11.0322
             1.53686            0.999424              11.024
             1.54127            0.999564             11.0195
             1.54954            0.999774             11.0113
             1.56032            0.999945             11.0005
             1.56859            0.999998             10.9922
               1.573            0.999998             10.9878
             1.58127            0.999945             10.9796
             1.59206            0.999774             10.9688
             1.60033            0.999564             10.9605
             1.60473            0.999424             10.9561
               1.613            0.999109             10.9478
             1.62379            0.998596             10.9371
             1.63206            0.998124             10.9288
             1.63647            0.997845             10.9244
             1.64474            0.997268             10.9162
             1.65552            0.996413             10.9054
             1.66379            0.995679             10.8972
              1.6682             0.99526             10.8928
             1.67647            0.994422             10.8845
             1.68726            0.993226             10.8738
             1.69553            0.992231             10.8656
             1.69993            0.991673             10.8612
              1.7082            0.990575              10.853
             1.71899            0.989039             10.8424
             1.72726            0.987785             10.8342
             1.73167            0.987088             10.8298
             1.73993             0.98573             10.8217
             1.75072            0.983857             10.8111
             1.75899            0.982343             10.8029
              1.7634            0.981509             10.7986
             1.77167            0.979893             10.7905
             1.78246            0.977683             10.7799
             1.79073            0.975913             10.7719
             1.79513            0.974942             10.7676
              1.8034            0.973069             10.7595
             1.81419            0.970526              10.749
             1.82246              0.9685              10.741
             1.82687            0.967393             10.7367
             1.83513            0.965266             10.7288
             1.84592            0.962391             10.7184
             1.85419            0.960111             10.7104
              1.8586             0.95887             10.7062
             1.86687             0.95649             10.6983
             1.87766            0.953287              10.688
             1.88593            0.950756             10.6801
             1.89033            0.949381             10.6759
              1.8986            0.946751             10.6681
             1.90939            0.943223             10.6579
             1.91766            0.940444             10.6501
             1.92207            0.938937             10.6459
             1.93033            0.936059             10.6382
             1.94112            0.932209             10.6281
             1.94939            0.929185             10.6204
              1.9538            0.927547             10.6163
             1.96207            0.924425             10.6087
             1.97286            0.920257             10.5987
             1.98113             0.91699             10.5911
             1.98553            0.915223             10.5871
              1.9938             0.91186             10.5795
             2.00459            0.907378             10.5697
             2.01286            0.903871             10.5622
             2.01727            0.901977             10.5582
             2.02553            0.898376             10.5508
             2.03632            0.893585             10.5411
             2.04459            0.889843             10.5338
               2.049            0.887824             10.5298
             2.05727            0.883988             10.5225
             2.06806            0.878893              10.513
             2.07633            0.874918             10.5058
             2.08073            0.872776             10.5019
               2.089             0.86871             10.4947
             2.09979            0.863316             10.4854
             2.10806            0.859113             10.4782
             2.11247             0.85685             10.4745
             2.12073            0.852557             10.4674
             2.13152            0.846869             10.4582
             2.13979            0.842443             10.4512
              2.1442             0.84006             10.4475
             2.15247            0.835546             10.4406
             2.16326             0.82957             10.4316
             2.17152            0.824924             10.4248
             2.17593            0.822425             10.4211
              2.1842            0.817693             10.4144
             2.19499            0.811435             10.4056
             2.20326            0.806575             10.3989
             2.20766            0.803962             10.3953
             2.21593            0.799017             10.3887
             2.22672            0.792483             10.3801
             2.23499            0.787413             10.3736
              2.2394            0.784689             10.3701
             2.24767            0.779537             10.3637
             2.25846            0.772734             10.3553
             2.26672            0.767459             10.3489
             2.27113            0.764626             10.3455
              2.2794            0.759271             10.3392
             2.29019            0.752206             10.3311
             2.29846            0.746732             10.3249
             2.30286            0.743794             10.3216
             2.31113            0.738241             10.3155
             2.32192            0.730921             10.3076
             2.33019            0.725253             10.3015
              2.3346            0.722212             10.2984
             2.34287            0.716468             10.2924
             2.35366              0.7089             10.2847
             2.36192            0.703043             10.2789
             2.36633            0.699903             10.2758
              2.3746            0.693973               10.27
             2.38539            0.686165             10.2626
             2.39366            0.680126             10.2569
             2.39806            0.676889             10.2539
             2.40633            0.670779             10.2484
             2.41712            0.662739             10.2412
             2.42539            0.656524             10.2357
              2.4298            0.653194             10.2328
             2.43807            0.646911             10.2275
             2.44886            0.638646             10.2205
             2.45712            0.632261             10.2153
             2.46153            0.628841             10.2125
              2.4698             0.62239             10.2073
             2.48059             0.61391             10.2006
             2.48886            0.607362             10.1956
             2.49326            0.603855             10.1929
             2.50153            0.597243              10.188
             2.51232            0.588555             10.1816
             2.52059             0.58185             10.1767
               2.525            0.578261             10.1742
             2.53327            0.571495             10.1694
             2.54406            0.562608             10.1633
             2.55232            0.555753             10.1587
             2.55673            0.552084             10.1562
               2.565            0.545171             10.1517
