               Theta              Radial            Vertical
          0.00110165          0.00110165             11.9504
          0.00523614          0.00523611             11.9504
           0.0106305           0.0106303             11.9503
            0.014765           0.0147644             11.9503
           0.0180699           0.0180689             11.9502
           0.0263389           0.0263359             11.9501
           0.0371276           0.0371191             11.9497
           0.0453966            0.045381             11.9494
           0.0498032           0.0497826             11.9492
           0.0580722           0.0580395             11.9487
           0.0688609           0.0688065              11.948
           0.0771298           0.0770534             11.9474
           0.0815364           0.0814461             11.9471
           0.0898054           0.0896848             11.9464
            0.100594            0.100425             11.9453
            0.108863            0.108648             11.9445
             0.11327            0.113028              11.944
            0.121539             0.12124              11.943
            0.132327            0.131942             11.9417
            0.140596            0.140134             11.9405
            0.145003            0.144495             11.9399
            0.153272            0.152673             11.9387
            0.164061            0.163326              11.937
             0.17233            0.171478             11.9356
            0.176736            0.175818             11.9348
            0.185005            0.183952             11.9333
            0.195794            0.194545             11.9313
            0.204063             0.20265             11.9297
            0.208469            0.206963             11.9287
            0.216738            0.215046              11.927
            0.227527            0.225569             11.9246
            0.235796            0.233617             11.9227
            0.240203              0.2379             11.9217
            0.248472            0.245923             11.9197
             0.25926            0.256366              11.917
            0.267529             0.26435             11.9148
            0.271936            0.268597             11.9137
            0.280205            0.276553             11.9114
            0.290994            0.286904             11.9084
            0.299263            0.294816              11.906
            0.303669            0.299024             11.9046
            0.311938            0.306904             11.9021
            0.322727            0.317154             11.8988
            0.330996            0.324985             11.8961
            0.335403            0.329149             11.8947
            0.343671            0.336946             11.8919
             0.35446            0.347084             11.8882
            0.362729            0.354827             11.8853
            0.367136            0.358944             11.8838
            0.375405            0.366649             11.8808
            0.386193            0.376665             11.8767
            0.394462            0.384312             11.8736
            0.398869            0.388376             11.8719
            0.407138            0.395983             11.8687
            0.417927            0.405866             11.8643
            0.426196             0.41341             11.8609
            0.430602            0.417418             11.8591
            0.438871            0.424918             11.8556
             0.44966            0.434659              11.851
            0.457929            0.442091             11.8474
            0.462336             0.44604             11.8454
            0.470605            0.453425             11.8417
            0.481393            0.463015             11.8368
            0.489662            0.470328             11.8329
            0.494069            0.474212             11.8308
            0.502338            0.481476             11.8269
            0.513126            0.490903             11.8216
            0.521395            0.498091             11.8175
            0.525802            0.501907             11.8153
            0.534071            0.509042             11.8111
             0.54486            0.518298             11.8056
            0.553129            0.525352             11.8013
            0.557535            0.529096              11.799
            0.565804            0.536095             11.7946
            0.576593            0.545171             11.7887
            0.584862            0.552084             11.7842
            0.589269            0.555753             11.7817
            0.597538            0.562608             11.7771
            0.608326            0.571495              11.771
            0.616595            0.578261             11.7663
            0.621002             0.58185             11.7637
            0.629271            0.588555             11.7589
             0.64006            0.597243             11.7525
            0.648329            0.603855             11.7475
            0.652735            0.607362             11.7448
            0.661004             0.61391             11.7398
            0.671793             0.62239             11.7331
            0.680062            0.628841             11.7279
            0.684468            0.632261             11.7252
            0.692737            0.638646             11.7199
            0.703526            0.646911              11.713
            0.711795            0.653194             11.7076
            0.716202            0.656524             11.7047
            0.724471            0.662739             11.6992
            0.735259            0.670779             11.6921
            0.743528            0.676889             11.6865
            0.747935            0.680126             11.6835
            0.756204            0.686165             11.6778
            0.766993            0.693973             11.6704
            0.775262            0.699903             11.6646
            0.779668            0.703043             11.6615
            0.787937              0.7089             11.6557
            0.798726            0.716468              11.648
            0.806995            0.722212             11.6421
            0.811401            0.725253             11.6389
             0.81967            0.730921             11.6329
            0.830459            0.738241             11.6249
            0.838728            0.743794             11.6188
            0.843135            0.746732             11.6155
            0.851404            0.752206             11.6093
            0.862192            0.759271             11.6012
            0.870461            0.764626             11.5949
            0.874868            0.767459             11.5915
            0.883137            0.772734             11.5851
            0.893926            0.779537             11.5768
            0.902195            0.784689             11.5703
            0.906601            0.787413             11.5668
             0.91487            0.792483             11.5603
            0.925659            0.799017             11.5517
            0.933928            0.803962             11.5451
            0.938334            0.806575             11.5415
            0.946603            0.811435             11.5348
            0.957392            0.817693             11.5261
            0.965661            0.822425             11.5193
            0.970068            0.824924             11.5156
            0.978337             0.82957             11.5088
            0.989125            0.835546             11.4998
            0.997394             0.84006             11.4929
              1.0018            0.842443             11.4892
             1.01007            0.846869             11.4822
             1.02086            0.852557              11.473
             1.02913             0.85685              11.466
             1.03353            0.859113             11.4622
              1.0418            0.863316             11.4551
             1.05259             0.86871             11.4457
             1.06086            0.872776             11.4385
             1.06527            0.874918             11.4347
             1.07354            0.878893             11.4274
             1.08433            0.883988             11.4179
             1.09259            0.887824             11.4106
               1.097            0.889843             11.4067
             1.10527            0.893585             11.3993
             1.11606            0.898376             11.3896
             1.12433            0.901977             11.3822
             1.12873            0.903871             11.3782
               1.137            0.907378             11.3707
             1.14779             0.91186             11.3609
             1.15606            0.915223             11.3533
             1.16047             0.91699             11.3493
             1.16874            0.920257             11.3417
             1.17952            0.924425             11.3318
             1.18779            0.927547             11.3241
              1.1922            0.929185               11.32
             1.20047            0.932209             11.3123
             1.21126            0.936059             11.3022
             1.21953            0.938937             11.2945
             1.22393            0.940444             11.2903
              1.2322            0.943223             11.2826
             1.24299            0.946751             11.2724
             1.25126            0.949381             11.2645
             1.25567            0.950756             11.2603
             1.26394            0.953287             11.2525
             1.27472             0.95649             11.2422
             1.28299             0.95887             11.2342
              1.2874            0.960111               11.23
             1.29567            0.962391             11.2221
             1.30646            0.965266             11.2117
             1.31473            0.967393             11.2037
             1.31913              0.9685             11.1994
              1.3274            0.970526             11.1914
             1.33819            0.973069             11.1809
             1.34646            0.974942             11.1729
             1.35087            0.975913             11.1686
             1.35914            0.977683             11.1605
             1.36992            0.979893             11.1499
             1.37819            0.981509             11.1418
              1.3826            0.982343             11.1375
             1.39087            0.983857             11.1294
             1.40166             0.98573             11.1187
             1.40993            0.987088             11.1106
             1.41433            0.987785             11.1062
              1.4226            0.989039             11.0981
             1.43339            0.990575             11.0874
             1.44166            0.991673             11.0792
             1.44607            0.992231             11.0748
             1.45434            0.993226             11.0666
             1.46512            0.994422             11.0559
             1.47339             0.99526             11.0476
              1.4778            0.995679             11.0433
             1.48607            0.996413              11.035
             1.49686            0.997268             11.0243
             1.50513            0.997845              11.016
             1.50953            0.998124             11.0116
              1.5178            0.998596             11.0034
             1.52859            0.999109             10.9926
             1.53686            0.999424             10.9843
             1.54127            0.999564             10.9799
             1.54954            0.999774             10.9717
             1.56032            0.999945             10.9609
             1.56859            0.999998             10.9526
               1.573            0.999998             10.9482
             1.58127            0.999945             10.9399
             1.59206            0.999774             10.9291
             1.60033            0.999564             10.9209
             1.60473            0.999424             10.9165
               1.613            0.999109             10.9082
             1.62379            0.998596             10.8974
             1.63206            0.998124             10.8892
             1.63647            0.997845             10.8848
             1.64474            0.997268             10.8765
             1.65552            0.996413             10.8658
             1.66379            0.995679             10.8575
              1.6682             0.99526             10.8532
             1.67647            0.994422             10.8449
             1.68726            0.993226             10.8342
             1.69553            0.992231              10.826
             1.69993            0.991673             10.8216
              1.7082            0.990575             10.8134
             1.71899            0.989039             10.8027
             1.72726            0.987785             10.7946
             1.73167            0.987088             10.7902
             1.73993             0.98573             10.7821
             1.75072            0.983857             10.7714
             1.75899            0.982343             10.7633
              1.7634            0.981509              10.759
             1.77167            0.979893             10.7509
             1.78246            0.977683             10.7403
             1.79073            0.975913             10.7322
             1.79513            0.974942             10.7279
              1.8034            0.973069             10.7199
             1.81419            0.970526             10.7094
             1.82246              0.9685             10.7014
             1.82687            0.967393             10.6971
             1.83513            0.965266             10.6891
             1.84592            0.962391             10.6787
             1.85419            0.960111             10.6708
              1.8586             0.95887             10.6666
             1.86687             0.95649             10.6586
             1.87766            0.953287             10.6483
             1.88593            0.950756             10.6405
             1.89033            0.949381             10.6363
              1.8986            0.946751             10.6284
             1.90939            0.943223             10.6182
             1.91766            0.940444             10.6105
             1.92207            0.938937             10.6063
             1.93033            0.936059             10.5986
             1.94112            0.932209             10.5885
             1.94939            0.929185             10.5808
              1.9538            0.927547             10.5767
             1.96207            0.924425              10.569
             1.97286            0.920257             10.5591
             1.98113             0.91699             10.5515
             1.98553            0.915223             10.5475
              1.9938             0.91186             10.5399
             2.00459            0.907378             10.5301
             2.01286            0.903871             10.5226
             2.01727            0.901977             10.5186
             2.02553            0.898376             10.5112
             2.03632            0.893585             10.5015
             2.04459            0.889843             10.4941
               2.049            0.887824             10.4902
             2.05727            0.883988             10.4829
             2.06806            0.878893             10.4734
             2.07633            0.874918             10.4661
             2.08073            0.872776             10.4623
               2.089             0.86871             10.4551
             2.09979            0.863316             10.4457
             2.10806            0.859113             10.4386
             2.11247             0.85685             10.4348
             2.12073            0.852557             10.4278
             2.13152            0.846869             10.4186
             2.13979            0.842443             10.4116
              2.1442             0.84006             10.4079
             2.15247            0.835546              10.401
             2.16326             0.82957              10.392
             2.17152            0.824924             10.3852
             2.17593            0.822425             10.3815
              2.1842            0.817693             10.3747
             2.19499            0.811435              10.366
             2.20326            0.806575             10.3593
             2.20766            0.803962             10.3557
             2.21593            0.799017             10.3491
             2.22672            0.792483             10.3405
             2.23499            0.787413              10.334
              2.2394            0.784689             10.3305
             2.24767            0.779537              10.324
             2.25846            0.772734             10.3157
             2.26672            0.767459             10.3093
             2.27113            0.764626             10.3059
              2.2794            0.759271             10.2996
             2.29019            0.752206             10.2915
             2.29846            0.746732             10.2853
             2.30286            0.743794              10.282
             2.31113            0.738241             10.2759
             2.32192            0.730921             10.2679
             2.33019            0.725253             10.2619
              2.3346            0.722212             10.2587
             2.34287            0.716468             10.2528
             2.35366              0.7089             10.2451
             2.36192            0.703043             10.2393
             2.36633            0.699903             10.2362
              2.3746            0.693973             10.2304
             2.38539            0.686165              10.223
             2.39366            0.680126             10.2173
             2.39806            0.676889             10.2143
             2.40633            0.670779             10.2087
             2.41712            0.662739             10.2015
             2.42539            0.656524             10.1961
              2.4298            0.653194             10.1932
             2.43807            0.646911             10.1878
             2.44886            0.638646             10.1809
             2.45712            0.632261             10.1756
             2.46153            0.628841             10.1729
              2.4698             0.62239             10.1677
             2.48059             0.61391              10.161
             2.48886            0.607362              10.156
             2.49326            0.603855             10.1533
             2.50153            0.597243             10.1483
             2.51232            0.588555             10.1419
             2.52059             0.58185             10.1371
               2.525            0.578261             10.1345
             2.53327            0.571495             10.1298
             2.54406            0.562608             10.1237
             2.55232            0.555753             10.1191
             2.55673            0.552084             10.1166
               2.565            0.545171             10.1121
