               Theta              Radial            Vertical
          0.00110165          0.00110165             1287.16
          0.00523614          0.00523611             1287.16
           0.0106305           0.0106303             1287.16
            0.014765           0.0147644             1287.16
           0.0180699           0.0180689             1287.16
           0.0263389           0.0263359             1287.16
           0.0371276           0.0371191             1287.16
           0.0453966            0.045381             1287.15
           0.0498032           0.0497826             1287.15
           0.0580722           0.0580395             1287.15
           0.0688609           0.0688065             1287.15
           0.0771298           0.0770534             1287.15
           0.0815364           0.0814461             1287.15
           0.0898054           0.0896848             1287.15
            0.100594            0.100425             1287.15
            0.108863            0.108648             1287.15
             0.11327            0.113028             1287.15
            0.121539             0.12124             1287.15
            0.132327            0.131942             1287.15
            0.140596            0.140134             1287.15
            0.145003            0.144495             1287.15
            0.153272            0.152673             1287.14
            0.164061            0.163326             1287.14
             0.17233            0.171478             1287.14
            0.176736            0.175818             1287.14
            0.185005            0.183952             1287.14
            0.195794            0.194545             1287.14
            0.204063             0.20265             1287.14
            0.208469            0.206963             1287.13
            0.216738            0.215046             1287.13
            0.227527            0.225569             1287.13
            0.235796            0.233617             1287.13
            0.240203              0.2379             1287.13
            0.248472            0.245923             1287.13
             0.25926            0.256366             1287.12
            0.267529             0.26435             1287.12
            0.271936            0.268597             1287.12
            0.280205            0.276553             1287.12
            0.290994            0.286904             1287.11
            0.299263            0.294816             1287.11
            0.303669            0.299024             1287.11
            0.311938            0.306904             1287.11
            0.322727            0.317154              1287.1
            0.330996            0.324985              1287.1
            0.335403            0.329149              1287.1
            0.343671            0.336946              1287.1
             0.35446            0.347084             1287.09
            0.362729            0.354827             1287.09
            0.367136            0.358944             1287.09
            0.375405            0.366649             1287.09
            0.386193            0.376665             1287.08
            0.394462            0.384312             1287.08
            0.398869            0.388376             1287.08
            0.407138            0.395983             1287.07
            0.417927            0.405866             1287.07
            0.426196             0.41341             1287.07
            0.430602            0.417418             1287.06
            0.438871            0.424918             1287.06
             0.44966            0.434659             1287.06
            0.457929            0.442091             1287.05
            0.462336             0.44604             1287.05
            0.470605            0.453425             1287.05
            0.481393            0.463015             1287.04
            0.489662            0.470328             1287.04
            0.494069            0.474212             1287.04
            0.502338            0.481476             1287.03
            0.513126            0.490903             1287.03
            0.521395            0.498091             1287.02
            0.525802            0.501907             1287.02
            0.534071            0.509042             1287.02
             0.54486            0.518298             1287.01
            0.553129            0.525352             1287.01
            0.557535            0.529096                1287
            0.565804            0.536095                1287
            0.576593            0.545171             1286.99
            0.584862            0.552084             1286.99
            0.589269            0.555753             1286.99
            0.597538            0.562608             1286.98
            0.608326            0.571495             1286.98
            0.616595            0.578261             1286.97
            0.621002             0.58185             1286.97
            0.629271            0.588555             1286.96
             0.64006            0.597243             1286.96
            0.648329            0.603855             1286.95
            0.652735            0.607362             1286.95
            0.661004             0.61391             1286.95
            0.671793             0.62239             1286.94
            0.680062            0.628841             1286.93
            0.684468            0.632261             1286.93
            0.692737            0.638646             1286.93
            0.703526            0.646911             1286.92
            0.711795            0.653194             1286.91
            0.716202            0.656524             1286.91
            0.724471            0.662739              1286.9
            0.735259            0.670779              1286.9
            0.743528            0.676889             1286.89
            0.747935            0.680126             1286.89
            0.756204            0.686165             1286.88
            0.766993            0.693973             1286.88
            0.775262            0.699903             1286.87
            0.779668            0.703043             1286.87
            0.787937              0.7089             1286.86
            0.798726            0.716468             1286.85
            0.806995            0.722212             1286.85
            0.811401            0.725253             1286.84
             0.81967            0.730921             1286.84
            0.830459            0.738241             1286.83
            0.838728            0.743794             1286.82
            0.843135            0.746732             1286.82
            0.851404            0.752206             1286.81
            0.862192            0.759271             1286.81
            0.870461            0.764626              1286.8
            0.874868            0.767459              1286.8
            0.883137            0.772734             1286.79
            0.893926            0.779537             1286.78
            0.902195            0.784689             1286.78
            0.906601            0.787413             1286.77
             0.91487            0.792483             1286.77
            0.925659            0.799017             1286.76
            0.933928            0.803962             1286.75
            0.938334            0.806575             1286.75
            0.946603            0.811435             1286.74
            0.957392            0.817693             1286.73
            0.965661            0.822425             1286.72
            0.970068            0.824924             1286.72
            0.978337             0.82957             1286.71
            0.989125            0.835546             1286.71
            0.997394             0.84006              1286.7
              1.0018            0.842443             1286.69
             1.01007            0.846869             1286.69
             1.02086            0.852557             1286.68
             1.02913             0.85685             1286.67
             1.03353            0.859113             1286.67
              1.0418            0.863316             1286.66
             1.05259             0.86871             1286.65
             1.06086            0.872776             1286.64
             1.06527            0.874918             1286.64
             1.07354            0.878893             1286.63
             1.08433            0.883988             1286.62
             1.09259            0.887824             1286.62
               1.097            0.889843             1286.61
             1.10527            0.893585              1286.6
             1.11606            0.898376              1286.6
             1.12433            0.901977             1286.59
             1.12873            0.903871             1286.58
               1.137            0.907378             1286.58
             1.14779             0.91186             1286.57
             1.15606            0.915223             1286.56
             1.16047             0.91699             1286.55
             1.16874            0.920257             1286.55
             1.17952            0.924425             1286.54
             1.18779            0.927547             1286.53
              1.1922            0.929185             1286.53
             1.20047            0.932209             1286.52
             1.21126            0.936059             1286.51
             1.21953            0.938937              1286.5
             1.22393            0.940444              1286.5
              1.2322            0.943223             1286.49
             1.24299            0.946751             1286.48
             1.25126            0.949381             1286.47
             1.25567            0.950756             1286.47
             1.26394            0.953287             1286.46
             1.27472             0.95649             1286.45
             1.28299             0.95887             1286.44
              1.2874            0.960111             1286.44
             1.29567            0.962391             1286.43
             1.30646            0.965266             1286.42
             1.31473            0.967393             1286.41
             1.31913              0.9685              1286.4
              1.3274            0.970526              1286.4
             1.33819            0.973069             1286.39
             1.34646            0.974942             1286.38
             1.35087            0.975913             1286.37
             1.35914            0.977683             1286.37
             1.36992            0.979893             1286.36
             1.37819            0.981509             1286.35
              1.3826            0.982343             1286.34
             1.39087            0.983857             1286.33
             1.40166             0.98573             1286.32
             1.40993            0.987088             1286.32
             1.41433            0.987785             1286.31
              1.4226            0.989039              1286.3
             1.43339            0.990575             1286.29
             1.44166            0.991673             1286.28
             1.44607            0.992231             1286.28
             1.45434            0.993226             1286.27
             1.46512            0.994422             1286.26
             1.47339             0.99526             1286.25
              1.4778            0.995679             1286.25
             1.48607            0.996413             1286.24
             1.49686            0.997268             1286.23
             1.50513            0.997845             1286.22
             1.50953            0.998124             1286.22
              1.5178            0.998596             1286.21
             1.52859            0.999109              1286.2
             1.53686            0.999424             1286.19
             1.54127            0.999564             1286.19
             1.54954            0.999774             1286.18
             1.56032            0.999945             1286.17
             1.56859            0.999998             1286.16
               1.573            0.999998             1286.15
             1.58127            0.999945             1286.15
             1.59206            0.999774             1286.13
             1.60033            0.999564             1286.13
             1.60473            0.999424             1286.12
               1.613            0.999109             1286.11
             1.62379            0.998596              1286.1
             1.63206            0.998124             1286.09
             1.63647            0.997845             1286.09
             1.64474            0.997268             1286.08
             1.65552            0.996413             1286.07
             1.66379            0.995679             1286.06
              1.6682             0.99526             1286.06
             1.67647            0.994422             1286.05
             1.68726            0.993226             1286.04
             1.69553            0.992231             1286.03
             1.69993            0.991673             1286.03
              1.7082            0.990575             1286.02
             1.71899            0.989039             1286.01
             1.72726            0.987785                1286
             1.73167            0.987088                1286
             1.73993             0.98573             1285.99
             1.75072            0.983857             1285.98
             1.75899            0.982343             1285.97
              1.7634            0.981509             1285.96
             1.77167            0.979893             1285.96
             1.78246            0.977683             1285.95
             1.79073            0.975913             1285.94
             1.79513            0.974942             1285.93
              1.8034            0.973069             1285.93
             1.81419            0.970526             1285.91
             1.82246              0.9685             1285.91
             1.82687            0.967393              1285.9
             1.83513            0.965266             1285.89
             1.84592            0.962391             1285.88
             1.85419            0.960111             1285.88
              1.8586             0.95887             1285.87
             1.86687             0.95649             1285.86
             1.87766            0.953287             1285.85
             1.88593            0.950756             1285.85
             1.89033            0.949381             1285.84
              1.8986            0.946751             1285.83
             1.90939            0.943223             1285.82
             1.91766            0.940444             1285.82
             1.92207            0.938937             1285.81
             1.93033            0.936059              1285.8
             1.94112            0.932209             1285.79
             1.94939            0.929185             1285.79
              1.9538            0.927547             1285.78
             1.96207            0.924425             1285.77
             1.97286            0.920257             1285.76
             1.98113             0.91699             1285.76
             1.98553            0.915223             1285.75
              1.9938             0.91186             1285.75
             2.00459            0.907378             1285.74
             2.01286            0.903871             1285.73
             2.01727            0.901977             1285.72
             2.02553            0.898376             1285.72
             2.03632            0.893585             1285.71
             2.04459            0.889843              1285.7
               2.049            0.887824              1285.7
             2.05727            0.883988             1285.69
             2.06806            0.878893             1285.68
             2.07633            0.874918             1285.67
             2.08073            0.872776             1285.67
               2.089             0.86871             1285.66
             2.09979            0.863316             1285.65
             2.10806            0.859113             1285.64
             2.11247             0.85685             1285.64
             2.12073            0.852557             1285.63
             2.13152            0.846869             1285.62
             2.13979            0.842443             1285.62
              2.1442             0.84006             1285.61
             2.15247            0.835546             1285.61
             2.16326             0.82957              1285.6
             2.17152            0.824924             1285.59
             2.17593            0.822425             1285.59
              2.1842            0.817693             1285.58
             2.19499            0.811435             1285.57
             2.20326            0.806575             1285.56
             2.20766            0.803962             1285.56
             2.21593            0.799017             1285.55
             2.22672            0.792483             1285.55
             2.23499            0.787413             1285.54
              2.2394            0.784689             1285.54
             2.24767            0.779537             1285.53
             2.25846            0.772734             1285.52
             2.26672            0.767459             1285.51
             2.27113            0.764626             1285.51
              2.2794            0.759271             1285.51
             2.29019            0.752206              1285.5
             2.29846            0.746732             1285.49
             2.30286            0.743794             1285.49
             2.31113            0.738241             1285.48
             2.32192            0.730921             1285.47
             2.33019            0.725253             1285.47
              2.3346            0.722212             1285.46
             2.34287            0.716468             1285.46
             2.35366              0.7089             1285.45
             2.36192            0.703043             1285.44
             2.36633            0.699903             1285.44
              2.3746            0.693973             1285.44
             2.38539            0.686165             1285.43
             2.39366            0.680126             1285.42
             2.39806            0.676889             1285.42
             2.40633            0.670779             1285.41
             2.41712            0.662739             1285.41
             2.42539            0.656524              1285.4
              2.4298            0.653194              1285.4
             2.43807            0.646911             1285.39
             2.44886            0.638646             1285.39
             2.45712            0.632261             1285.38
             2.46153            0.628841             1285.38
              2.4698             0.62239             1285.37
             2.48059             0.61391             1285.37
             2.48886            0.607362             1285.36
             2.49326            0.603855             1285.36
             2.50153            0.597243             1285.35
             2.51232            0.588555             1285.35
             2.52059             0.58185             1285.34
               2.525            0.578261             1285.34
             2.53327            0.571495             1285.34
             2.54406            0.562608             1285.33
             2.55232            0.555753             1285.32
             2.55673            0.552084             1285.32
               2.565            0.545171             1285.32
